theta,displacement_method1,velocity_method1,acceleration_method1,displacement_method2,velocity_method2,acceleration_method2
0.0,0.0,0.0,511280.15558473085,0.0,-0.0,-511280.15558473085
0.03500381786729574,0.007139999811178299,85.43327345537514,510966.9601466856,-0.007139999811178299,-85.43327345537514,-510966.9601466856
0.07000763573459148,0.028551251729899363,170.76187900525372,510027.7575414863,-0.028551251729899363,-170.76187900525372,-510027.7575414863
0.10501145360188723,0.06420752392865658,255.88127697720344,508463.698425845,-0.06420752392865658,-255.88127697720344,-508463.698425845
0.14001527146918297,0.11406513240497773,340.68718400781665,506276.69899453083,-0.11406513240497773,-340.68718400781665,-506276.69899453083
0.1750190893364787,0.17806299450053586,425.0757008046558,503469.43863275915,-0.17806299450053586,-425.0757008046558,-503469.43863275915
0.21002290720377445,0.2561227037360858,508.94343943765784,500045.3566335639,-0.2561227037360858,-508.94343943765784,-500045.3566335639
0.2450267250710702,0.34814862587055906,592.1876500040457,496008.6479841741,-0.34814862587055906,-592.1876500040457,-496008.6479841741
0.28003054293836593,0.45402801606658727,674.7063465115673,491364.25822655903,-0.45402801606658727,-674.7063465115673,-491364.25822655903
0.31503436080566166,0.5736311570189727,756.3984318258342,486117.8773984356,-0.5736311570189727,-756.3984318258342,-486117.8773984356
0.3500381786729574,0.7068115178768171,837.1638215286843,480275.9330621634,-0.7068115178768171,-837.1638215286843,-480275.9330621634
0.3850419965402532,0.8534059337646518,916.9035665358216,473845.58243006695,-0.8534059337646518,-916.9035665358216,-473845.58243006695
0.4200458144075489,1.0132348056826022,995.5199743235117,466834.7035958334,-1.0132348056826022,-995.5199743235117,-466834.7035958334
0.45504963227484463,1.1861023205407033,1072.9167286158126,459251.8858827272,-1.1861023205407033,-1072.9167286158126,-459251.8858827272
0.4900534501421404,1.3717966910577566,1148.9990073857039,451106.4193204489,-1.3717966910577566,-1148.9990073857039,-451106.4193204489
0.5250572680094361,1.5700904152308723,1223.6735990255506,442408.28326352715,-1.5700904152308723,-1223.6735990255506,-442408.28326352715
0.5600610858767319,1.7807405550577649,1296.8490165445758,433168.1341651912,-1.7807405550577649,-1296.8490165445758,-433168.1341651912
0.5950649037440277,2.0034890341703324,1368.4356096534268,423397.2925217007,-2.0034890341703324,-1368.4356096534268,-423397.2925217007
0.6300687216113233,2.2380629540149037,1438.3456745985272,413107.7290031285,-2.2380629540149037,-1438.3456745985272,-413107.7290031285
0.6650725394786191,2.4841749281917647,1506.4935616116436,402312.0497875874,-2.4841749281917647,-1506.4935616116436,-402312.0497875874
0.7000763573459148,2.7415234345443515,1572.7957798430261,391023.4811168707,-2.7415234345443515,-1572.7957798430261,-391023.4811168707
0.7350801752132106,3.009793184566753,1637.1710996495704,379255.8530924252,-3.009793184566753,-1637.1710996495704,-379255.8530924252
0.7700839930805063,3.2886555096769623,1699.5406521126763,367023.5827315108,-3.2886555096769623,-1699.5406521126763,-367023.5827315108
0.805087810947802,3.5777687638826077,1759.8280256638882,354341.656304305,-3.5777687638826077,-1759.8280256638882,-354341.656304305
0.8400916288150978,3.8767787423458655,1817.9593596999273,341225.6109735912,-3.8767787423458655,-1817.9593596999273,-341225.6109735912
0.8750954466823936,4.1853191153347415,1873.863435072432,327691.51575952565,-4.1853191153347415,-1873.863435072432,-327691.51575952565
0.9100992645496893,4.5030118770290715,1927.471761341537,313755.951852803,-4.5030118770290715,-1927.471761341537,-313755.951852803
0.945103082416985,4.829467808631389,1978.7186606864045,299435.99230034096,-4.829467808631389,-1978.7186606864045,-299435.99230034096
0.9801069002842808,5.164286955215282,2027.5413483698846,284749.18108837045,-5.164286955215282,-2027.5413483698846,-284749.18108837045
1.0151107181515766,5.5070591157270465,2073.88000965875,269713.5116485579,-5.5070591157270465,-2073.88000965875,-269713.5116485579
1.0501145360188722,5.857364345540279,2117.677873105244,254347.40481349436,-5.857364345540279,-2117.677873105244,-254347.40481349436
1.085118353886168,6.21477347094776,2158.8812801001773,238669.6862485558,-6.21477347094776,-2158.8812801001773,-238669.6862485558
1.1201221717534637,6.578848614960248,2197.439750612349,222699.5633877874,-6.578848614960248,-2197.439750612349,-222699.5633877874
1.1551259896207595,6.94914373376804,2233.306045033767,206456.6019020661,-6.94914373376804,-2233.306045033767,-206456.6019020661
1.1901298074880553,7.325205163208061,2266.4362220548783,189960.70172837196,-7.325205163208061,-2266.4362220548783,-189960.70172837196
1.2251336253553509,7.706572174566942,2296.7896924989204,173232.0726895368,-7.706572174566942,-2296.7896924989204,-173232.0726895368
1.2601374432226466,8.092777539039215,2324.329269049439,156291.2097343374,-8.092777539039215,-2324.329269049439,-156291.2097343374
1.2951412610899424,8.483348100148998,2349.0212118100285,139158.86782827054,-8.483348100148998,-2349.0212118100285,-139158.86782827054
1.3301450789572382,8.87780535343396,2370.835269640509,121856.03652576887,-8.87780535343396,-2370.835269640509,-121856.03652576887
1.365148896824534,9.275666032681308,2389.744717218871,104403.91425501318,-9.275666032681308,-2389.744717218871,-104403.91425501318
1.4001527146918296,9.6764427019976,2405.7263877835912,86823.88234684424,-9.6764427019976,-2405.7263877835912,-86823.88234684424
1.4351565325591253,10.079644352987017,2418.7607015162152,69137.47883959246,-10.079644352987017,-2418.7607015162152,-69137.47883959246
1.4701603504264211,10.484777006306441,2428.831689529414,51366.37209191957,-10.484777006306441,-2428.831689529414,-51366.37209191957
1.505164168293717,10.891344316860383,2435.9270134311405,33532.33423599849,-10.891344316860383,-2435.9270134311405,-33532.33423599849
1.5401679861610127,11.298848181894282,2440.037980440919,15657.214503556259,-11.298848181894282,-2440.037980440919,-15657.214503556259
1.5751718040283085,11.706789351241202,2441.159554039731,-2237.0875425410068,-11.706789351241202,-2441.159554039731,2237.0875425410068
1.610175621895604,12.114668038974244,2439.2903601404714,-20128.648838365818,-12.114668038974244,-2439.2903601404714,20128.648838365818
1.6451794397628998,12.521984535715381,2434.4326887713987,-37995.54967779973,-12.521984535715381,-2434.4326887713987,37995.54967779973
1.6801832576301956,12.928239820850468,2426.5924912705236,-55815.900567288874,-12.928239820850468,-2426.5924912705236,55815.900567288874
1.7151870754974914,13.33293617390044,2415.7793729943774,-73567.8690435859,-13.33293617390044,-2415.7793729943774,73567.8690435859
1.7501908933647872,13.735577784299668,2402.0065815500816,-91229.7064216211,-13.735577784299668,-2402.0065815500816,91229.7064216211
1.7851947112320827,14.13567135883437,2385.290990565147,-108779.7744397334,-14.13567135883437,-2385.290990565147,108779.7744397334
1.8201985290993785,14.532726725996948,2365.6530790148804,-126196.57176961751,-14.532726725996948,-2365.6530790148804,126196.57176961751
1.8552023469666743,14.926257436515748,2343.1169061327305,-143458.7603585072,-14.926257436515748,-2343.1169061327305,143458.7603585072
1.89020616483397,15.315781359324589,2317.710081934305,-160545.19157132372,-15.315781359324589,-2317.710081934305,160545.19157132372
1.9252099827012659,15.70082127224185,2289.463733391175,-177434.93210076046,-15.70082127224185,-2289.463733391175,177434.93210076046
1.9602138005685616,16.080905446635494,2258.412466295913,-194107.28961356016,-16.080905446635494,-2258.412466295913,194107.28961356016
1.9952176184358572,16.4555682253577,2224.594322865076,-210541.83810156476,-16.4555682253577,-2224.594322865076,210541.83810156476
2.030221436303153,16.824350593241075,2188.050735132078,-226718.44290648,-16.824350593241075,-2188.050735132078,226718.44290648
2.0652252541704486,17.186800739457475,2148.8264741870676,-242617.28538769262,-17.186800739457475,-2148.8264741870676,242617.28538769262
2.1002290720377443,17.54247461105052,2106.969595325969,-258218.8872029247,-17.54247461105052,-2106.969595325969,258218.8872029247
2.13523288990504,17.89093645696358,2062.5313791759168,-273504.13417197036,-17.89093645696358,-2062.5313791759168,273504.13417197036
2.170236707772336,18.231759361896778,2015.5662688691991,-288454.2996942847,-18.231759361896778,-2015.5662688691991,288454.2996942847
2.2052405256396317,18.5645257693389,1966.1318033426767,-303051.06769173127,-18.5645257693389,-1966.1318033426767,303051.06769173127
2.2402443435069275,18.888827993133525,1914.2885468444083,-317276.55504838226,-18.888827993133525,-1914.2885468444083,317276.55504838226
2.2752481613742233,19.204268716952477,1860.100014733835,-331113.3335198771,-19.204268716952477,-1860.100014733835,331113.3335198771
2.310251979241519,19.510461481064848,1803.632595666438,-344544.4510855002,-19.510461481064848,-1803.632595666438,344544.4510855002
2.345255797108815,19.80703115580509,1744.9554702581927,-357553.4527168156,-19.80703115580509,-1744.9554702581927,357553.4527168156
2.3802596149761106,20.093614401160202,1684.140526329485,-370124.40053741663,-20.093614401160202,-1684.140526329485,370124.40053741663
2.4152634328434064,20.369860111912864,1621.2622708323072,-382241.8933490901,-20.369860111912864,-1621.2622708323072,382241.8933490901
2.4502672507107017,20.635429847795287,1556.3977385686521,-393891.0855004736,-20.635429847795287,-1556.3977385686521,393891.0855004736
2.4852710685779975,20.889998248126627,1489.6263978119255,-405057.7050750891,-20.889998248126627,-1489.6263978119255,405057.7050750891
2.5202748864452933,21.133253430426088,1421.0300529470187,-415728.0713764693,-21.133253430426088,-1421.0300529470187,415728.0713764693
2.555278704312589,21.364897372513276,1350.6927442483045,-425889.11168895557,-21.364897372513276,-1350.6927442483045,425889.11168895557
2.590282522179885,21.584646277627773,1278.7006449183534,-435528.3772936338,-21.584646277627773,-1278.7006449183534,435528.3772936338
2.6252863400471806,21.79223092212048,1205.1419555135105,-444634.05871978414,-21.79223092212048,-1205.1419555135105,444634.05871978414
2.6602901579144764,21.987396985290896,1130.1067958856756,-453195.0002131619,-21.987396985290896,-1130.1067958856756,453195.0002131619
2.695293975781772,22.16990536096609,1053.6870947726718,-461200.7134033822,-22.16990536096609,-1053.6870947726718,461200.7134033822
2.730297793649068,22.33953245043979,975.9764771724725,-468641.3901536648,-22.33953245043979,-975.9764771724725,468641.3901536648
2.7653016115163638,22.496070436412566,897.0701496392708,-475507.9145771963,-22.496070436412566,-897.0701496392708,475507.9145771963
2.800305429383659,22.639327537597577,817.064783641914,-481791.8742053869,-22.639327537597577,-817.064783641914,481791.8742053869
2.835309247250955,22.76912824367991,736.058397127609,-487485.5702943411,-22.76912824367991,-736.058397127609,487485.5702943411
2.8703130651182507,22.885313530341655,654.1502344360078,-492582.02725691255,-22.885313530341655,-654.1502344360078,492582.02725691255
2.9053168829855465,22.98774105408932,571.4406447107785,-497075.0012087909,-22.98774105408932,-571.4406447107785,497075.0012087909
2.9403207008528423,23.07628532664483,488.030958957639,-500958.98761814716,-23.07628532664483,-488.030958957639,500958.98761814716
2.975324518720138,23.150837868686526,404.0233658994697,-504229.22804946767,-23.150837868686526,-404.0233658994697,504229.22804946767
3.010328336587434,23.21130734275173,319.5207867806008,-506881.7159933144,-23.21130734275173,-319.5207867806008,506881.7159933144
3.0453321544547296,23.257619665138158,234.6267492736554,-508913.2017748687,-23.257619665138158,-234.6267492736554,508913.2017748687
3.0803359723220254,23.28971809666694,149.44526064343356,-510321.1965352446,-23.28971809666694,-149.44526064343356,510321.1965352446
3.115339790189321,23.30756331219623,64.08068032322623,-511103.97528069455,-23.30756331219623,-64.08068032322623,511103.97528069455
3.150343608056617,23.311133448800057,-21.362407940326232,-511260.5789959729,-23.311133448800057,21.362407940326232,511260.5789959729
3.1853474259239123,23.300424132553538,-106.7793242171909,-510790.8158192649,-23.300424132553538,106.7793242171909,510790.8158192649
3.220351243791208,23.275448483891555,-192.0654206417425,-509695.2612772455,-23.275448483891555,192.0654206417425,509695.2612772455
3.255355061658504,23.236237101534346,-277.11620962126926,-507975.2575799766,-23.236237101534346,277.11620962126926,507975.2575799766
3.2903588795257996,23.182838024999736,-361.8274918481332,-505632.91197650944,-23.182838024999736,361.8274918481332,505632.91197650944
3.3253626973930954,23.115316675747895,-446.09548395873355,-502671.0941732052,-23.115316675747895,446.09548395873355,502671.0941732052
3.360366515260391,23.03375577703074,-529.8169456828819,-499093.4328179358,-23.03375577703074,529.8169456828819,499093.4328179358
3.395370333127687,22.93825525254421,-612.8893063278099,-494904.31105447526,-22.93825525254421,612.8893063278099,494904.31105447526
3.4303741509949828,22.828932104007503,-695.21079044185,-490108.8611525249,-22.828932104007503,695.21079044185,490108.8611525249
3.4653779688622786,22.70592026781937,-776.6805425038327,-484712.95821995387,-22.70592026781937,776.6805425038327,484712.95821995387
3.5003817867295743,22.56937045096696,-857.1987504854371,-478723.2130049562,-22.56937045096696,857.1987504854371,478723.2130049562
3.53538560459687,22.419449946388355,-936.6667681351164,-472146.9637969448,-22.419449946388355,936.6667681351164,472146.9637969448
3.5703894224641655,22.256342428014925,-1014.9872358337776,-464992.267436104,-22.256342428014925,1014.9872358337776,464992.267436104
3.6053932403314612,22.08024772574464,-1092.064199874162,-457267.8894426139,-22.08024772574464,1092.064199874162,457267.8894426139
3.640397058198757,21.891381580622074,-1167.8032300177688,-448983.2932776429,-21.891381580622074,1167.8032300177688,448983.2932776429
3.675400876066053,21.68997538052492,-1242.1115351853284,-440148.62874926266,-21.68997538052492,1242.1115351853284,440148.62874926266
3.7104046939333486,21.47627587668095,-1314.8980771390648,-430774.7195774891,-21.47627587668095,1314.8980771390648,430774.7195774891
3.7454085118006444,21.250544881362696,-1386.0736820174764,-420873.0501336876,-21.250544881362696,1386.0736820174764,420873.0501336876
3.78041232966794,21.013058947130187,-1455.5511495859978,-410455.7513705854,-21.013058947130187,1455.5511495859978,410455.7513705854
3.815416147535236,20.764109028014744,-1523.2453600696801,-399535.58596012933,-20.764109028014744,1523.2453600696801,399535.58596012933
3.8504199654025317,20.504000123058937,-1589.07337843702,-388125.93265739887,-20.504000123058937,1589.07337843702,388125.93265739887
3.8854237832698275,20.23305090264939,-1652.9545560071585,-376240.7699097286,-20.23305090264939,1652.9545560071585,376240.7699097286
3.9204276011371233,19.951593318100258,-1714.8106292559864,-363894.6587311239,-19.951593318100258,1714.8106292559864,363894.6587311239
3.9554314190044186,19.65997219496569,-1774.5658157000814,-351102.7248629479,-19.65997219496569,1774.5658157000814,351102.7248629479
3.9904352368717144,19.358544810579453,-1832.146906741031,-337880.640242738,-19.358544810579453,1832.146906741031,337880.640242738
4.02543905473901,19.047680456339478,-1887.4833573563656,-324244.60380385513,-19.047680456339478,1887.4833573563656,324244.60380385513
4.060442872606306,18.727759985273345,-1940.507372527245,-310211.3216294867,-18.727759985273345,1940.507372527245,310211.3216294867
4.095446690473602,18.39917534543921,-1991.1539902969912,-295797.98648532067,-18.39917534543921,1991.1539902969912,295797.98648532067
4.130450508340897,18.06232909973368,-2039.3611613587245,-281022.256755962,-18.06232909973368,2039.3611613587245,281022.256755962
4.165454326208193,17.717633932695065,-2085.069825074584,-265902.2348109018,-17.717633932695065,2085.069825074584,265902.2348109018
4.200458144075489,17.365512144906155,-2128.2239818334006,-250456.44482654223,-17.365512144906155,2128.2239818334006,250456.44482654223
4.235461961942785,17.00639513561592,-2168.770761658191,-234703.81009144482,-17.00639513561592,2168.770761658191,234703.81009144482
4.27046577981008,16.640722874214187,-2206.6604889793853,-218663.62982261428,-16.640722874214187,2206.6604889793853,218663.62982261428
4.3054695976773765,16.26894336120648,-2241.8467434944714,-202355.5555212111,-16.26894336120648,2241.8467434944714,202355.5555212111
4.340473415544672,15.891512079349823,-2274.286417039458,-185799.56689667222,-15.891512079349823,2274.286417039458,185799.56689667222
4.375477233411968,15.508891435621514,-2303.9397664025087,-169015.94738872306,-15.508891435621514,2303.9397664025087,169015.94738872306
4.410481051279263,15.121550194704923,-2330.77046201502,-152025.2593172839,-15.121550194704923,2330.77046201502,152025.2593172839
4.44548486914656,14.72996290468603,-2354.7456324605173,-134848.31869070113,-14.72996290468603,2354.7456324605173,134848.31869070113
4.480488687013855,14.334609315664643,-2375.8359047468025,-117506.16970318131,-14.334609315664643,2375.8359047468025,117506.16970318131
4.51549250488115,13.935973791992247,-2394.015440292055,-100020.05895265848,-13.935973791992247,2394.015440292055,100020.05895265848
4.5504963227484465,13.53454471885685,-2409.2619665807597,-82411.40941069253,-13.53454471885685,2409.2619665807597,82411.40941069253
4.585500140615742,13.13081390394172,-2421.55680445071,-64701.794176284704,-13.13081390394172,2421.55680445071,64701.794176284704
4.620503958483038,12.725275974890991,-2430.884890977636,-46912.91004576142,-12.725275974890991,2430.884890977636,46912.91004576142
4.655507776350333,12.318427773320558,-2437.2347979294254,-29066.550931117756,-12.318427773320558,2437.2347979294254,29066.550931117756
4.69051159421763,11.910767746116388,-2440.598745767337,-11184.58115937342,-11.910767746116388,2440.598745767337,11184.58115937342
4.725515412084925,11.502795334766303,-2440.972613177036,6711.091314332584,-11.502795334766303,2440.972613177036,-6711.091314332584
4.760519229952221,11.095010363473065,-2438.3559421177965,24598.541747105144,-11.095010363473065,2438.3559421177965,-24598.541747105144
4.7955230478195165,10.687912426798771,-2432.751938383662,42455.855469216345,-10.687912426798771,2432.751938383662,-42455.855469216345
4.830526865686813,10.282000277590388,-2424.167467675892,60261.15473269499,-10.282000277590388,2424.167467675892,-60261.15473269499
4.865530683554108,9.877771215936708,-2412.613047191505,77992.62551467448,-9.877771215936708,2412.613047191505,-77992.62551467448
4.9005345014214035,9.475720479904961,-2398.1028327382137,95628.54424267513,-9.475720479904961,2398.1028327382137,-95628.54424267513
4.9355383192887,9.076340638803812,-2380.6546013915486,113147.30440906741,-9.076340638803812,2380.6546013915486,-113147.30440906741
4.970542137155995,8.680120989715963,-2360.289729715417,130527.44304211412,-8.680120989715963,2360.289729715417,-130527.44304211412
5.005545955023291,8.287546958039595,-2337.0331675727666,147747.66700116516,-8.287546958039595,2337.0331675727666,-147747.66700116516
5.040549772890587,7.899099502773321,-2310.9134075584643,164786.87906377835,-7.899099502773321,2310.9134075584643,-164786.87906377835
5.075553590757883,7.515254527272968,-2281.962450091808,181624.20377281978,-7.515254527272968,2281.962450091808,-181624.20377281978
5.110557408625178,7.136482296202381,-2250.215764211473,198239.0130118629,-7.136482296202381,2250.215764211473,-198239.0130118629
5.145561226492474,6.763246859392278,-2215.7122441208885,214610.95127756734,-6.763246859392278,2215.7122441208885,-214610.95127756734
5.18056504435977,6.396005483313317,-2178.4941615373164,230719.96061806078,-6.396005483313317,2178.4941615373164,-230719.96061806078
5.215568862227066,6.035208090859584,-2138.6071139029814,246546.30520678492,-6.035208090859584,2138.6071139029814,-246546.30520678492
